#Let n be no. substitutions in 10 sites given 'hky.mod'.
#E[n] = 7.389; Var[n] = 7.499; 95% c.i. = [3, 13]
#n p(n)
0	0.000670
1	0.004819
2	0.017445
3	0.042307
4	0.077277
5	0.113323
6	0.138908
7	0.146327
8	0.135180
9	0.111222
10	0.082498
11	0.055711
12	0.034531
13	0.019778
14	0.010530
15	0.005236
16	0.002443
17	0.001074
18	0.000446
19	0.000175
20	0.000066
21	0.000023
22	0.000008
23	0.000003
24	0.000001
25	0.000000
26	0.000000
27	0.000000
28	0.000000
29	0.000000
30	0.000000
